Voltage (V),Current (A)
0.0,9.999999999999999e-19
0.0008008008008008008,1.735937164947776e-14
0.0016016016016016017,3.5020091083020285e-14
0.0024024024024024027,5.298738950880688e-14
0.0032032032032032033,7.126658894550374e-14
0.004004004004004004,8.986310379867724e-14
0.0048048048048048055,1.0878244246457202e-13
0.005605605605605606,1.2803020896173022e-13
0.006406406406406407,1.4761210459093489e-13
0.007207207207207207,1.675339296239684e-13
0.008008008008008008,1.878015850216863e-13
0.00880880880880881,2.0842107418191658e-13
0.009609609609609611,2.2939850471770164e-13
0.01041041041041041,2.507400902664085e-13
0.011211211211211212,2.7245215233024477e-13
0.012012012012012012,2.945411221487233e-13
0.012812812812812813,3.170135426036351e-13
0.013613613613613615,3.398760701570871e-13
0.014414414414414415,3.631354768231858e-13
0.015215215215215216,3.867986521739477e-13
0.016016016016016016,4.1087260538003024e-13
0.016816816816816817,4.353644672868895e-13
0.01761761761761762,4.602814925269774e-13
0.01841841841841842,4.856310616686073e-13
0.019219219219219222,5.114206834021208e-13
0.02002002002002002,5.376579967640062e-13
0.02082082082082082,5.64350773399624e-13
0.021621621621621623,5.915069198652161e-13
0.022422422422422424,6.191344799698723e-13
0.023223223223223226,6.472416371581533e-13
0.024024024024024024,6.75836716934076e-13
0.024824824824824825,7.049281893271755e-13
0.025625625625625627,7.345246714013771e-13
0.02642642642642643,7.646349298074222e-13
0.02722722722722723,7.952678833795994e-13
0.028028028028028028,8.264326057775575e-13
0.02882882882882883,8.581383281739741e-13
0.02962962962962963,8.903944419888856e-13
0.030430430430430432,9.232105016714781e-13
0.031231231231231234,9.565962275301722e-13
0.03203203203203203,9.905615086118347e-13
0.03283283283283284,1.025116405630973e-12
0.033633633633633635,1.0602711539497759e-12
0.03443443443443443,1.096036166609888e-12
0.03523523523523524,1.132422037416816e-12
0.036036036036036036,1.1694395440778713e-12
0.03683683683683684,1.2070996513945934e-12
0.03763763763763764,1.245413514510585e-12
0.038438438438438444,1.284392482215734e-12
0.03923923923923924,1.3240481003077905e-12
0.04004004004004004,1.3643921150122962e-12
0.040840840840840845,1.4054364764618894e-12
0.04164164164164164,1.4471933422360017e-12
0.04244244244244245,1.4896750809620048e-12
0.043243243243243246,1.5328942759788679e-12
0.044044044044044044,1.5768637290644197e-12
0.04484484484484485,1.6215964642273089e-12
0.04564564564564565,1.6671057315647876e-12
0.04644644644644645,1.7134050111874734e-12
0.04724724724724725,1.7605080172122323e-12
0.04804804804804805,1.8084287018243822e-12
0.04884884884884885,1.857181259410413e-12
0.04964964964964965,1.9067801307624412e-12
0.050450450450450456,1.9572400073556647e-12
0.051251251251251254,2.0085758357000557e-12
0.05205205205205205,2.0608028217676115e-12
0.05285285285285286,2.1139364354964463e-12
0.053653653653653655,2.167992415373079e-12
0.05445445445445446,2.222986773094267e-12
0.05525525525525526,2.2789357983097622e-12
0.056056056056056056,2.3358560634473987e-12
0.05685685685685686,2.3937644286219454e-12
0.05765765765765766,2.4526780466291716e-12
0.058458458458458464,2.512614368026601e-12
0.05925925925925926,2.5735911463024704e-12
0.06006006006006006,2.6356264431344184e-12
0.060860860860860864,2.6987386337394583e-12
0.06166166166166166,2.762946412316823e-12
0.06246246246246247,2.8282687975853008e-12
0.06326326326326327,2.8947251384166847e-12
0.06406406406406406,2.962335119567023e-12
0.06486486486486487,3.0311187675073655e-12
0.06566566566566567,3.1010964563557107e-12
0.06646646646646646,3.172288913911945e-12
0.06726726726726727,3.2447172277975393e-12
0.06806806806806807,3.318402851701818e-12
0.06886886886886887,3.393367611736675e-12
0.06966966966966967,3.4696337129015903e-12
0.07047047047047048,3.5472237456608856e-12
0.07127127127127128,3.6261606926351433e-12
0.07207207207207207,3.706467935408801e-12
0.07287287287287288,3.788169261455915e-12
0.07367367367367368,3.871288871186135e-12
0.07447447447447447,3.9558513851130184e-12
0.07527527527527528,4.041881851146776e-12
0.07607607607607608,4.12940575201359e-12
0.07687687687687689,4.218449012803763e-12
0.07767767767767768,4.309038008650875e-12
0.07847847847847848,4.4011995725442494e-12
0.07927927927927929,4.4949610032770455e-12
0.08008008008008008,4.590350073532319e-12
0.08088088088088088,4.6873950381094515e-12
0.08168168168168169,4.786124642293392e-12
0.08248248248248248,4.886568130369164e-12
0.08328328328328329,4.988755254284213e-12
0.08408408408408409,5.092716282461098e-12
0.0848848848848849,5.198482008763165e-12
0.08568568568568569,5.306083761615885e-12
0.08648648648648649,5.415553413286514e-12
0.0872872872872873,5.526923389324831e-12
0.08808808808808809,5.6402266781677885e-12
0.08888888888888889,5.755496840910881e-12
0.0896896896896897,5.8727680212491284e-12
0.09049049049049049,5.992074955590637e-12
0.0912912912912913,6.113452983345741e-12
0.0920920920920921,6.2369380573947265e-12
0.0928928928928929,6.362566754737293e-12
0.0936936936936937,6.4903762873268676e-12
0.0944944944944945,6.6204045130930095e-12
0.0952952952952953,6.7526899471551525e-12
0.0960960960960961,6.887271773230986e-12
0.0968968968968969,7.024189855242941e-12
0.0976976976976977,7.163484749126072e-12
0.0984984984984985,7.305197714840997e-12
0.0992992992992993,7.449370728595313e-12
0.1001001001001001,7.596046495277218e-12
0.10090090090090091,7.745268461104932e-12
0.1017017017017017,7.897080826495705e-12
0.10250250250250251,8.051528559158291e-12
0.10330330330330331,8.208657407412579e-12
0.1041041041041041,8.368513913740571e-12
0.10490490490490491,8.531145428572498e-12
0.10570570570570571,8.696600124312313e-12
0.10650650650650652,8.864927009606623e-12
0.10730730730730731,9.036175943861355e-12
0.10810810810810811,9.210397652010393e-12
0.10890890890890892,9.387643739540596e-12
0.10970970970970971,9.567966707777653e-12
0.11051051051051052,9.751419969437277e-12
0.11131131131131132,9.938057864446357e-12
0.11211211211211211,1.0127935676038774e-11
0.11291291291291292,1.0321109647130616e-11
0.11371371371371372,1.0517636996979643e-11
0.11451451451451453,1.0717575938133993e-11
0.11531531531531532,1.0920985693675034e-11
0.11611611611611612,1.1127926514759652e-11
0.11691691691691693,1.1338459698466918e-11
0.11771771771771772,1.1552647605954708e-11
0.11851851851851852,1.1770553680931404e-11
0.11931931931931933,1.1992242468448305e-11
0.12012012012012012,1.2217779634018223e-11
0.12092092092092092,1.2447231983066049e-11
0.12172172172172173,1.2680667480716834e-11
0.12252252252252253,1.2918155271927525e-11
0.12332332332332333,1.3159765701968052e-11
0.12412412412412413,1.3405570337258044e-11
0.12492492492492493,1.3655641986565205e-11
0.12572572572572574,1.3910054722571682e-11
0.12652652652652654,1.4168883903814862e-11
0.12732732732732732,1.443220619700896e-11
0.12812812812812813,1.4700099599754212e-11
0.12892892892892893,1.4972643463640163e-11
0.12972972972972974,1.52499185177501e-11
0.13053053053053054,1.5532006892573455e-11
0.13133133133133135,1.5818992144333365e-11
0.13213213213213215,1.6110959279736503e-11
0.13293293293293293,1.640799478115252e-11
0.13373373373373373,1.671018663223072e-11
0.13453453453453454,1.701762434396123e-11
0.13533533533533534,1.733039898118873e-11
0.13613613613613615,1.7648603189586397e-11
0.13693693693693695,1.797233122309807e-11
0.13773773773773773,1.8301678971856812e-11
0.13853853853853854,1.8636743990588188e-11
0.13933933933933934,1.8977625527506455e-11
0.14014014014014015,1.9324424553712542e-11
0.14094094094094095,1.967724379310221e-11
0.14174174174174176,2.0036187752793538e-11
0.14254254254254256,2.0401362754082474e-11
0.14334334334334334,2.0772876963935872e-11
0.14414414414414414,2.1150840427031186e-11
0.14494494494494495,2.1535365098352312e-11
0.14574574574574575,2.192656487635128e-11
0.14654654654654656,2.2324555636685725e-11
0.14734734734734736,2.2729455266541883e-11
0.14814814814814817,2.3141383699553443e-11
0.14894894894894894,2.3560462951326624e-11
0.14974974974974975,2.3986817155581943e-11
0.15055055055055055,2.4420572600923236e-11
0.15135135135135136,2.4861857768245194e-11
0.15215215215215216,2.5310803368790107e-11
0.15295295295295297,2.576754238286527e-11
0.15375375375375377,2.6232210099232572e-11
0.15455455455455455,2.67049441551818e-11
0.15535535535535536,2.718588457729964e-11
0.15615615615615616,2.767517382294627e-11
0.15695695695695697,2.8172956822452185e-11
0.15775775775775777,2.8679381022047297e-11
0.15855855855855858,2.9194596427535475e-11
0.15935935935935935,2.9718755648727046e-11
0.16016016016016016,3.025201394464281e-11
0.16096096096096096,3.079452926950252e-11
0.16176176176176177,3.134646231951201e-11
0.16256256256256257,3.190797658046227e-11
0.16336336336336338,3.247923837615482e-11
0.16416416416416418,3.306041691766796e-11
0.16496496496496496,3.3651684353477906e-11
0.16576576576576577,3.425321582045033e-11
0.16656656656656657,3.486518949571678e-11
0.16736736736736738,3.5487786649451875e-11
0.16816816816816818,3.612119169856657e-11
0.16896896896896899,3.676559226133349e-11
0.1697697697697698,3.742117921296064e-11
0.17057057057057057,3.80881467421296e-11
0.17137137137137137,3.876669240851555e-11
0.17217217217217218,3.9457017201305455e-11
0.17297297297297298,4.015932559873223e-11
0.1737737737737738,4.0873825628642494e-11
0.1745745745745746,4.160072893011554e-11
0.17537537537537537,4.2340250816152054e-11
0.17617617617617617,4.309261033745122e-11
0.17697697697697698,4.385803034729464e-11
0.17777777777777778,4.463673756755691e-11
0.1785785785785786,4.542896265586181e-11
0.1793793793793794,4.623494027390466e-11
0.1801801801801802,4.7054909156960253e-11
0.18098098098098098,4.78891121845978e-11
0.18178178178178178,4.873779645262324e-11
0.1825825825825826,4.960121334627042e-11
0.1833833833833834,5.047961861466285e-11
0.1841841841841842,5.1373272446568157e-11
0.184984984984985,5.228243954746751e-11
0.1857857857857858,5.3207389217962836e-11
0.18658658658658658,5.4148395433545346e-11
0.1873873873873874,5.510573692574862e-11
0.1881881881881882,5.6079697264710515e-11
0.188988988988989,5.7070564943168304e-11
0.1897897897897898,5.80786334619119e-11
0.1905905905905906,5.910420141672056e-11
0.1913913913913914,6.014757258680848e-11
0.1921921921921922,6.120905602480625e-11
0.192992992992993,6.228896614830405e-11
0.1937937937937938,6.338762283298373e-11
0.1945945945945946,6.450535150736789e-11
0.1953953953953954,6.564248324921398e-11
0.19619619619619622,6.679935488358117e-11
0.196996996996997,6.79763090826001e-11
0.1977977977977978,6.91736944669742e-11
0.1985985985985986,7.039186570924332e-11
0.1993993993993994,7.163118363883967e-11
0.2002002002002002,7.289201534896774e-11
0.20100100100100102,7.417473430533947e-11
0.20180180180180182,7.54797204567966e-11
0.2026026026026026,7.680736034785423e-11
0.2034034034034034,7.815804723319747e-11
0.2042042042042042,7.953218119416553e-11
0.20500500500500501,8.093016925725815e-11
0.20580580580580582,8.23524255146995e-11
0.20660660660660662,8.379937124709458e-11
0.20740740740740743,8.527143504821494e-11
0.2082082082082082,8.676905295195068e-11
0.209009009009009,8.829266856146628e-11
0.20980980980980982,8.984273318059842e-11
0.21061061061061062,9.14197059475348e-11
0.21141141141141143,9.302405397081358e-11
0.21221221221221223,9.465625246768347e-11
0.21301301301301304,9.631678490486626e-11
0.2138138138138138,9.800614314176212e-11
0.21461461461461462,9.972482757614136e-11
0.21541541541541542,1.0147334729236518e-10
0.21621621621621623,1.0325222021217936e-10
0.21701701701701703,1.0506197324812577e-10
0.21781781781781784,1.0690314245961694e-10
0.21861861861861862,1.0877627321171998e-10
0.21941941941941942,1.1068192033669685e-10
0.22022022022022023,1.1262064829834893e-10
0.22102102102102103,1.1459303135921467e-10
0.22182182182182184,1.1659965375066903e-10
0.22262262262262264,1.186411098459768e-10
0.22342342342342345,1.207180043363491e-10
0.22422422422422422,1.2283095241005655e-10
0.22502502502502503,1.249805799346515e-10
0.22582582582582583,1.2716752364235384e-10
0.22662662662662664,1.293924313186547e-10
0.22742742742742744,1.3165596199419422e-10
0.22822822822822825,1.3395878613997055e-10
0.22902902902902905,1.363015858659367e-10
0.22982982982982983,1.3868505512304605e-10
0.23063063063063063,1.411098999088048e-10
0.23143143143143144,1.4357683847639196e-10
0.23223223223223224,1.4608660154741017e-10
0.23303303303303305,1.4863993252833032e-10
0.23383383383383385,1.5123758773069237e-10
0.23463463463463466,1.5388033659512944e-10
0.23543543543543544,1.565689619192805e-10
0.23623623623623624,1.593042600896597e-10
0.23703703703703705,1.6208704131755068e-10
0.23783783783783785,1.6491812987899576e-10
0.23863863863863866,1.677983643589517e-10
0.23943943943943946,1.707285978996827e-10
0.24024024024024024,1.7370969845346686e-10
0.24104104104104104,1.7674254903968882e-10
0.24184184184184185,1.7982804800639444e-10
0.24264264264264265,1.8296710929638708e-10
0.24344344344344346,1.8616066271794315e-10
0.24424424424424426,1.894096542202265e-10
0.24504504504504507,1.9271504617348395e-10
0.24584584584584585,1.960778176541052e-10
0.24664664664664665,1.9949896473463082e-10
0.24744744744744746,2.029795007787948e-10
0.24824824824824826,2.0652045674168887e-10
0.24904904904904906,2.101228814751374e-10
0.24984984984984987,2.1378784203837296e-10
0.2506506506506507,2.1751642401410637e-10
0.2514514514514515,2.2130973183008212e-10
0.2522522522522523,2.2516888908621627e-10
0.2530530530530531,2.290950388874136e-10
0.25385385385385384,2.3308934418216084e-10
0.25465465465465464,2.371529881070017e-10
0.25545545545545545,2.412871743369848e-10
0.25625625625625625,2.4549312744220233e-10
0.25705705705705706,2.497720932505136e-10
0.25785785785785786,2.541253392165668e-10
0.25865865865865867,2.585541547972265e-10
0.2594594594594595,2.630598518335176e-10
0.2602602602602603,2.6764376493920164e-10
0.2610610610610611,2.723072518960962e-10
0.2618618618618619,2.77051694056258e-10
0.2626626626626627,2.8187849675114744e-10
0.2634634634634635,2.867890897078965e-10
0.2642642642642643,2.9178492747280073e-10
0.26506506506506505,2.968674898421662e-10
0.26586586586586586,3.0203828230063337e-10
0.26666666666666666,3.072988364671095e-10
0.26746746746746747,3.126507105484436e-10
0.2682682682682683,3.1809548980097676e-10
0.2690690690690691,3.236347870001044e-10
0.2698698698698699,3.292702429179883e-10
0.2706706706706707,3.3500352680956494e-10
0.2714714714714715,3.408363369069874e-10
0.2722722722722723,3.467704009226519e-10
0.2730730730730731,3.528074765609564e-10
0.2738738738738739,3.58949352038942e-10
0.2746746746746747,3.6519784661597467e-10
0.27547547547547546,3.7155481113261953e-10
0.27627627627627627,3.7802212855887165e-10
0.27707707707707707,3.846017145519013e-10
0.2778778778778779,3.9129551802348355e-10
0.2786786786786787,3.9810552171727755e-10
0.2794794794794795,4.0503374279612685e-10
0.2802802802802803,4.120822334395533e-10
0.2810810810810811,4.1925308145162685e-10
0.2818818818818819,4.265484108793839e-10
0.2826826826826827,4.339703826419827e-10
0.2834834834834835,4.4152119517078084e-10
0.2842842842842843,4.4920308506052155e-10
0.2850850850850851,4.570183277318286e-10
0.2858858858858859,4.649692381051977e-10
0.2866866866866867,4.730581712866894e-10
0.2874874874874875,4.812875232655269e-10
0.2882882882882883,4.896597316237993e-10
0.2890890890890891,4.981772762584904e-10
0.2898898898898899,5.068426801160355e-10
0.2906906906906907,5.156585099396365e-10
0.2914914914914915,5.246273770295442e-10
0.2922922922922923,5.3375193801654e-10
0.2930930930930931,5.430348956488477e-10
0.2938938938938939,5.524789995927015e-10
0.2946946946946947,5.620870472468124e-10
0.29549549549549553,5.718618845709768e-10
0.29629629629629634,5.818064069290647e-10
0.2970970970970971,5.919235599466425e-10
0.2978978978978979,6.022163403834876e-10
0.2986986986986987,6.126877970212425e-10
0.2994994994994995,6.23341031566484e-10
0.3003003003003003,6.34179199569465e-10
0.3011011011011011,6.452055113588092e-10
0.3019019019019019,6.564232329924275e-10
0.3027027027027027,6.678356872249443e-10
0.3035035035035035,6.794462544919166e-10
0.30430430430430433,6.912583739111369e-10
0.30510510510510513,7.032755443013235e-10
0.30590590590590594,7.155013252184885e-10
0.30670670670670674,7.279393380102996e-10
0.30750750750750755,7.405932668887446e-10
0.3083083083083083,7.534668600214161e-10
0.3091091091091091,7.665639306417424e-10
0.3099099099099099,7.79888358178487e-10
0.3107107107107107,7.934440894048577e-10
0.3115115115115115,8.072351396075677e-10
0.3123123123123123,8.21265593776183e-10
0.31311311311311313,8.355396078131222e-10
0.31391391391391393,8.500614097646594e-10
0.31471471471471474,8.648353010732926e-10
0.31551551551551554,8.798656578518614e-10
0.31631631631631635,8.951569321797735e-10
0.31711711711711715,9.10713653421738e-10
0.31791791791791796,9.2654042956939e-10
0.3187187187187187,9.426419486061996e-10
0.3195195195195195,9.59022979896093e-10
0.3203203203203203,9.756883755961483e-10
0.3211211211211211,9.926430720938467e-10
0.3219219219219219,1.0098920914692526e-09
0.32272272272272273,1.027440542982585e-09
0.32352352352352354,1.0452936245876105e-09
0.32432432432432434,1.063456624471307e-09
0.32512512512512515,1.081934922620253e-09
0.32592592592592595,1.1007339924142163e-09
0.32672672672672676,1.1198594022473977e-09
0.32752752752752756,1.1393168171778217e-09
0.32832832832832837,1.1591120006053622e-09
0.3291291291291291,1.1792508159788877e-09
0.3299299299299299,1.1997392285330656e-09
0.3307307307307307,1.2205833070552786e-09
0.33153153153153153,1.2417892256832492e-09
0.33233233233233234,1.2633632657338515e-09
0.33313313313313314,1.2853118175636727e-09
0.33393393393393395,1.3076413824618768e-09
0.33473473473473475,1.3303585745759189e-09
0.33553553553553556,1.3534701228707016e-09
0.33633633633633636,1.3769828731217276e-09
0.33713713713713717,1.4009037899428628e-09
0.33793793793793797,1.4252399588492925e-09
0.3387387387387388,1.4499985883562946e-09
0.3395395395395396,1.4751870121144394e-09
0.34034034034034033,1.5008126910818647e-09
0.34114114114114114,1.526883215734257e-09
0.34194194194194194,1.553406308313187e-09
0.34274274274274275,1.5803898251134883e-09
0.34354354354354355,1.607841758810336e-09
0.34434434434434436,1.6357702408267255e-09
0.34514514514514516,1.664183543742042e-09
0.34594594594594597,1.6930900837424543e-09
0.34674674674674677,1.7224984231138346e-09
0.3475475475475476,1.7524172727779567e-09
0.3483483483483484,1.7828554948727245e-09
0.3491491491491492,1.813822105377183e-09
0.34994994994995,1.8453262767821134e-09
0.35075075075075074,1.877377340806969e-09
0.35155155155155154,1.909984791163995e-09
0.35235235235235235,1.9431582863703106e-09
0.35315315315315315,1.9769076526088243e-09
0.35395395395395396,2.0112428866388074e-09
0.35475475475475476,2.04617415875699e-09
0.35555555555555557,2.08171181581006e-09
0.3563563563563564,2.117866384259465e-09
0.3571571571571572,2.1546485732994103e-09
0.357957957957958,2.1920692780289816e-09
0.3587587587587588,2.23013958267934e-09
0.3595595595595596,2.2688707638969317e-09
0.3603603603603604,2.3082742940837024e-09
0.3611611611611612,2.3483618447952866e-09
0.36196196196196195,2.389145290198189e-09
0.36276276276276276,2.430636710586988e-09
0.36356356356356356,2.4728483959625816e-09
0.36436436436436437,2.5157928496725628e-09
0.3651651651651652,2.5594827921147767e-09
0.365965965965966,2.60393116450519e-09
0.3667667667667668,2.649151132711142e-09
0.3675675675675676,2.6951560911511593e-09
0.3683683683683684,2.7419596667624555e-09
0.3691691691691692,2.789575723037315e-09
0.36996996996997,2.8380183641295303e-09
0.3707707707707708,2.887301939032147e-09
0.3715715715715716,2.9374410458277135e-09
0.37237237237237236,2.9884505360123143e-09
0.37317317317317317,3.040345518894685e-09
0.37397397397397397,3.0931413660716494e-09
0.3747747747747748,3.1468537159813127e-09
0.3755755755755756,3.2014984785352182e-09
0.3763763763763764,3.2570918398310015e-09
0.3771771771771772,3.3136502669467616e-09
0.377977977977978,3.371190512818728e-09
0.3787787787787788,3.429729621203595e-09
